Time,Channel A
(s),(V)

0.00000000,0.00183111
0.03333340,-0.00259407
0.06666680,-0.00396741
0.10000021,0.00061037
0.13333361,-0.00106815
0.16666701,-0.00305185
0.20000041,0.00457778
0.23333381,-0.00259407
0.26666722,-0.00320444
0.30000062,-0.00091556
0.33333402,-0.00442518
0.36666742,-0.00259407
0.40000083,-0.00167852
0.43333423,-0.00259407
0.46666763,-0.00274667
0.50000103,-0.00259407
0.53333443,-0.00518815
0.56666784,-0.00412000
0.60000124,-0.00274667
0.63333464,-0.00350963
0.66666804,-0.00579852
0.70000144,-0.00305185
0.73333485,-0.00350963
0.76666825,-0.00442518
0.80000165,-0.00061037
0.83333505,-0.00579852
0.86666846,-0.00442518
0.90000186,-0.00137333
0.93333526,-0.00396741
0.96666866,-0.00595111
1.00000206,-0.00289926
1.03333547,-0.00595111
1.06666887,-0.00457778
1.10000227,-0.00503555
1.13333567,-0.00808741
1.16666907,-0.00640889
1.20000248,-0.00106815
1.23333588,-0.00839259
1.26666928,-0.00595111
1.30000268,-0.00564592
1.33333609,-0.00579852
1.36666949,-0.00534074
1.40000289,-0.00442518
1.43333629,-0.00885037
1.46666969,-0.00595111
1.50000310,-0.00442518
1.53333650,-0.01281777
1.56666990,-0.00595111
1.60000330,-0.00198370
1.63333670,-0.00701926
1.66667011,-0.00534074
1.70000351,-0.00183111
1.73333691,-0.00228889
1.76667031,-0.00289926
1.80000371,-0.00198370
1.83333712,-0.00183111
1.86667052,-0.00213630
1.90000392,-0.00350963
1.93333732,-0.00198370
1.96667073,-0.00045778
2.00000413,-0.00473037
2.03333753,-0.00305185
2.06667093,-0.00381481
2.10000433,-0.00213630
2.13333774,-0.00762963
2.16667114,-0.00167852
2.20000454,0.00015259
2.23333794,-0.00762963
2.26667134,0.00183111
2.30000475,0.00518815
2.33333815,-0.00228889
2.36667155,0.00152593
2.40000495,0.00412000
2.43333836,0.00534074
2.46667176,0.00213630
2.50000516,0.00503555
2.53333856,-0.00091556
2.56667196,0.00366222
2.60000537,0.00732444
2.63333877,0.00305185
2.66667217,0.00289926
2.70000557,0.00946074
2.73333897,0.00289926
2.76667238,0.00381481
2.80000578,0.00427259
2.83333918,0.00335704
2.86667258,0.00427259
2.90000599,0.00824000
2.93333939,0.00732444
2.96667279,0.00824000
3.00000619,0.01236000
3.03333959,0.00915555
3.06667300,0.01037629
3.10000640,0.01251259
3.13333980,0.01251259
3.16667320,0.01174963
3.20000660,0.01251259
3.23334001,0.00915555
3.26667341,0.01190222
3.30000681,0.01251259
3.33334021,0.01007111
3.36667361,0.01236000
3.40000702,0.01388592
3.43334042,0.01174963
3.46667382,0.01739555
3.50000722,0.01770074
3.53334063,0.01541185
3.56667403,0.01602222
3.60000743,0.01876888
3.63334083,0.01373333
3.66667423,0.01846370
3.70000764,0.01892148
3.73334104,0.01464888
3.76667444,0.01846370
3.80000784,0.01968444
3.83334124,0.01556444
3.86667465,0.02029481
3.90000805,0.01678518
3.93334145,0.01678518
3.96667485,0.01709037
4.00000826,0.02014222
4.03334166,0.02197333
4.06667506,0.02578814
4.10000846,0.02319407
4.13334186,0.02685629
4.16667527,0.02487259
4.20000867,0.02471999
4.23334207,0.02243111
4.26667547,0.02517777
4.30000887,0.02380444
4.33334228,0.02212592
4.36667568,0.02700888
4.40000908,0.02319407
4.43334248,0.01892148
4.46667589,0.02105777
4.50000929,0.02319407
4.53334269,0.02044740
4.56667609,0.02395703
4.60000949,0.02563555
4.63334290,0.02212592
4.66667630,0.02288888
4.70000970,0.02655110
4.73334310,0.02273629
4.76667650,0.02563555
4.80000991,0.02883999
4.83334331,0.02349925
4.86667671,0.02517777
4.90001011,0.02731407
4.93334351,0.02441481
4.96667692,0.02624592
5.00001032,0.02578814
5.03334372,0.01907407
5.06667712,0.02655110
5.10001053,0.02410962
5.13334393,0.02166814
5.16667733,0.02838221
5.20001073,0.02441481
5.23334413,0.02380444
5.26667754,0.02609333
5.30001094,0.02227851
5.33334434,0.02212592
5.36667774,0.02609333
5.40001114,0.02258370
5.43334455,0.02243111
5.46667795,0.02822962
5.50001135,0.02288888
5.53334475,0.02365185
5.56667816,0.02136296
5.60001156,0.02288888
5.63334496,0.01983703
5.66667836,0.02121036
5.70001176,0.02151555
5.73334517,0.01968444
5.76667857,0.01709037
5.80001197,0.01754814
5.83334537,0.02105777
5.86667877,0.01724296
5.90001218,0.01770074
5.93334558,0.01846370
5.96667898,0.02243111
6.00001238,0.01831111
6.03334578,0.01617481
6.06667919,0.01953185
6.10001259,0.01907407
6.13334599,0.01480148
6.16667939,0.02136296
6.20001280,0.01663259
6.23334620,0.01541185
6.26667960,0.02197333
6.30001300,0.01846370
6.33334640,0.01953185
6.36667981,0.01617481
6.40001321,0.01403851
6.43334661,0.01098666
6.46668001,0.01297037
6.50001341,0.01174963
6.53334682,0.00854518
6.56668022,0.01480148
6.60001362,0.01236000
6.63334702,0.01022370
6.66668043,0.01144444
6.70001383,0.01236000
6.73334723,0.00991852
6.76668063,0.01342814
6.80001403,0.00976592
6.83334744,0.00808741
6.86668084,0.01220740
6.90001424,0.00732444
6.93334764,0.00534074
6.96668104,0.00946074
7.00001445,0.00656148
7.03334785,0.00442518
7.06668125,0.00564592
7.10001465,0.00564592
7.13334806,0.00412000
7.16668146,0.00762963
7.20001486,0.00518815
7.23334826,0.00503555
7.26668166,0.00824000
7.30001507,0.00549333
7.33334847,0.00579852
7.36668187,0.00869778
7.40001527,0.00640889
7.43334867,0.00167852
7.46668208,0.01022370
7.50001548,0.00335704
7.53334888,0.00335704
7.56668228,0.00564592
7.60001568,0.00305185
7.63334909,0.00091556
7.66668249,0.00518815
7.70001589,0.00244148
7.73334929,0.00259407
7.76668270,0.00930815
7.80001610,0.00396741
7.83334950,0.00183111
7.86668290,0.00244148
7.90001630,0.00152593
7.93334971,0.00534074
7.96668311,0.00442518
8.00001651,0.00549333
8.03334991,0.00259407
8.06668331,0.00381481
8.10001672,0.00244148
8.13335012,0.00198370
8.16668352,0.00732444
8.20001692,0.00244148
8.23335033,0.00640889
8.26668373,0.01037629
8.30001713,0.00549333
8.33335053,0.00610370
8.36668393,0.01190222
8.40001734,0.00747704
8.43335074,0.00762963
8.46668414,0.00946074
8.50001754,0.00762963
8.53335094,0.00976592
8.56668435,0.01098666
8.60001775,0.00900296
8.63335115,0.00930815
8.66668455,0.01113926
8.70001796,0.01068148
8.73335136,0.00976592
8.76668476,0.01358074
8.80001816,0.01022370
8.83335156,0.01052889
8.86668497,0.01632740
8.90001837,0.01159703
8.93335177,0.01556444
8.96668517,0.01648000
9.00001857,0.01403851
9.03335198,0.01754814
9.06668538,0.01648000
9.10001878,0.01907407
9.13335218,0.02044740
9.16668558,0.02151555
9.20001899,0.01678518
9.23335239,0.02365185
9.26668579,0.02334666
9.30001919,0.01983703
9.33335260,0.02487259
9.36668600,0.02838221
9.40001940,0.02639851
9.43335280,0.02883999
9.46668620,0.03006073
9.50001961,0.02731407
9.53335301,0.02975555
9.56668641,0.03051851
9.60001981,0.03341777
9.63335321,0.02990814
9.66668662,0.02960295
9.70002002,0.03387555
9.73335342,0.03326517
9.76668682,0.03082369
9.80002023,0.03677480
9.83335363,0.03692739
9.86668703,0.03784295
9.90002043,0.03463851
9.93335383,0.03814813
9.96668724,0.04287850
10.00002064,0.03707999
10.03335404,0.04287850
10.06668744,0.04684591
10.10002084,0.04119999
10.13335425,0.04409925
10.16668765,0.04898221
10.20002105,0.04196295
10.23335445,0.04440443
10.26668786,0.05264443
10.30002126,0.04272591
10.33335466,0.04562517
10.36668806,0.04058962
10.40002146,0.04669332
10.43335487,0.04837184
10.46668827,0.04806665
10.50002167,0.04791406
10.53335507,0.05050813
10.56668847,0.05401776
10.60002188,0.05096591
10.63335528,0.04837184
10.66668868,0.05630665
10.70002208,0.05310221
10.73335548,0.05279702
10.76668889,0.05508591
10.80002229,0.05401776
10.83335569,0.05539110
10.86668909,0.05737480
10.90002250,0.05386517
10.93335590,0.05935850
10.96668930,0.05798517
11.00002270,0.05600147
11.03335610,0.06027406
11.06668951,0.06179998
11.10002291,0.05935850
11.13335631,0.06134220
11.16668971,0.06271554
11.20002311,0.05676443
11.23335652,0.06179998
11.26668992,0.06530961
11.30002332,0.06149480
11.33335672,0.06363109
11.36669013,0.06302072
11.40002353,0.06057924
11.43335693,0.06134220
11.46669033,0.06164739
11.50002373,0.05844295
11.53335714,0.06424146
11.56669054,0.06546220
11.60002394,0.06103702
11.63335734,0.06378368
11.66669074,0.06729332
11.70002415,0.06286813
11.73335755,0.06668294
11.76669095,0.06820887
11.80002435,0.06759850
11.83335776,0.06958220
11.86669116,0.06607258
11.90002456,0.06973480
11.93335796,0.06653035
11.96669136,0.06668294
12.00002477,0.06637776
12.03335817,0.06744590
12.06669157,0.06546220
12.10002497,0.06454664
12.13335837,0.06836146
12.16669178,0.06820887
12.20002518,0.06347850
12.23335858,0.06912442
12.26669198,0.06546220
12.30002538,0.06546220
12.33335879,0.06530961
12.36669219,0.06653035
12.40002559,0.06378368
12.43335899,0.06714072
12.46669240,0.06698813
12.50002580,0.06408887
12.53335920,0.06469924
12.56669260,0.06454664
12.60002600,0.06347850
12.63335941,0.06485184
12.66669281,0.06576739
12.70002621,0.06164739
12.73335961,0.06363109
12.76669301,0.06302072
12.80002642,0.06241035
12.83335982,0.06607258
12.86669322,0.06393628
12.90002662,0.06271554
12.93336003,0.06790368
12.96669343,0.06256294
13.00002683,0.06241035
13.03336023,0.06607258
13.06669363,0.06225776
13.10002704,0.06103702
13.13336044,0.06286813
13.16669384,0.06057924
13.20002724,0.05905332
13.23336064,0.06103702
13.26669405,0.06057924
13.30002745,0.05966369
13.33336085,0.06057924
13.36669425,0.05966369
13.40002766,0.05935850
13.43336106,0.05905332
13.46669446,0.06027406
13.50002786,0.05905332
13.53336126,0.06088443
13.56669467,0.05981628
13.60002807,0.05539110
13.63336147,0.06271554
13.66669487,0.05874813
13.70002827,0.05340739
13.73336168,0.05935850
13.76669508,0.05691702
13.80002848,0.05722221
13.83336188,0.06012146
13.86669528,0.06149480
13.90002869,0.06012146
13.93336209,0.06164739
13.96669549,0.06134220
14.00002889,0.05813776
14.03336230,0.06302072
14.06669570,0.05935850
14.10002910,0.05966369
14.13336250,0.06332590
14.16669590,0.06286813
14.20002931,0.06027406
14.23336271,0.06363109
14.26669611,0.06271554
14.30002951,0.06103702
14.33336291,0.06286813
14.36669632,0.06179998
14.40002972,0.06424146
14.43336312,0.06622516
14.46669652,0.06515702
14.50002993,0.06363109
14.53336333,0.06775109
14.56669673,0.06515702
14.60003013,0.06622516
14.63336353,0.07065035
14.66669694,0.06775109
14.70003034,0.06668294
14.73336374,0.07095554
14.76669714,0.06973480
14.80003054,0.06988738
14.83336395,0.07385479
14.86669735,0.07034516
14.90003075,0.07477035
14.93336415,0.07629627
14.96669756,0.07248146
15.00003096,0.07217628
15.03336436,0.07278664
15.06669776,0.07217628
15.10003116,0.07385479
15.13336457,0.07751702
15.16669797,0.07614368
15.20003137,0.07568590
15.23336477,0.08102664
15.26669817,0.07614368
15.30003158,0.07965331
15.33336498,0.08316294
15.36669838,0.07965331
15.40003178,0.08255257
15.43336518,0.08285775
15.46669859,0.08117923
15.50003199,0.08362071
15.53336539,0.08606219
15.56669879,0.08529923
15.60003220,0.08606219
15.63336560,0.08957183
15.66669900,0.08575701
15.70003240,0.08835109
15.73336580,0.09033479
15.76669921,0.08896145
15.80003261,0.09155553
15.83336601,0.09460738
15.86669941,0.09292886
15.90003281,0.09399701
15.93336622,0.09659109
15.96669962,0.09674367
16.00003302,0.09659109
16.03336642,0.09704886
16.06669983,0.09689627
16.10003323,0.09964293
16.13336663,0.10071110
16.16670003,0.09750663
16.20003343,0.09994812
16.23336684,0.10559400
16.26670024,0.10055850
16.30003364,0.10422070
16.33336704,0.10330520
16.36670044,0.10361030
16.40003385,0.10635700
16.43336725,0.10773030
16.46670065,0.10620440
16.50003405,0.10971400
16.53336746,0.10773030
16.56670086,0.11200290
16.60003426,0.11093480
16.63336766,0.11261330
16.66670106,0.11444440
16.70003447,0.10986660
16.73336787,0.11169770
16.76670127,0.11276590
16.80003467,0.11368150
16.83336807,0.11581770
16.86670148,0.11276590
16.90003488,0.11627550
16.93336828,0.11948000
16.96670168,0.11169770
17.00003508,0.11642810
17.03336849,0.12329480
17.06670189,0.11108740
17.10003529,0.11597030
17.13336869,0.11948000
17.16670210,0.11154520
17.20003550,0.11474960
17.23336890,0.10803550
17.26670230,0.11581770
17.30003570,0.11383400
17.33336911,0.11536000
17.36670251,0.11169770
17.40003591,0.11383400
17.43336931,0.11627550
17.46670271,0.11032440
17.50003612,0.11230810
17.53336952,0.11322370
17.56670292,0.11093480
17.60003632,0.11154520
17.63336973,0.11337630
17.66670313,0.11017180
17.70003653,0.11078220
17.73336993,0.11215550
17.76670333,0.10773030
17.80003674,0.10910370
17.83337014,0.10773030
17.86670354,0.10544150
17.90003694,0.10620440
17.93337034,0.10528890
17.96670375,0.09918515
18.00003715,0.10284740
18.03337055,0.10406810
18.06670395,0.09949034
18.10003735,0.10025330
18.13337076,0.10086370
18.16670416,0.09475997
18.20003756,0.09567553
18.23337096,0.09643849
18.26670437,0.09216590
18.30003777,0.09292886
18.33337117,0.09155553
18.36670457,0.08911405
18.40003797,0.08865627
18.43337138,0.08926664
18.46670478,0.08301035
18.50003818,0.08529923
18.53337158,0.08407849
18.56670498,0.08072146
18.60003839,0.08239998
18.63337179,0.08133183
18.66670519,0.07950072
18.70003859,0.07934812
18.73337200,0.07629627
18.76670540,0.07614368
18.80003880,0.07690664
18.83337220,0.07675405
18.86670560,0.07141331
18.90003901,0.07232887
18.93337241,0.06988738
18.96670581,0.06744590
19.00003921,0.06668294
19.03337261,0.06653035
19.06670602,0.06256294
19.10003942,0.06363109
19.13337282,0.06469924
19.16670622,0.06225776
19.20003963,0.06378368
19.23337303,0.06088443
19.26670643,0.06012146
19.30003983,0.06012146
19.33337323,0.06012146
19.36670664,0.05859554
19.40004004,0.05844295
19.43337344,0.06012146
19.46670684,0.05783258
19.50004024,0.05935850
19.53337365,0.06057924
19.56670705,0.05539110
19.60004045,0.05966369
19.63337385,0.05996887
19.66670725,0.05676443
19.70004066,0.06134220
19.73337406,0.06012146
19.76670746,0.05981628
19.80004086,0.06012146
19.83337427,0.06042665
19.86670767,0.06088443
19.90004107,0.06775109
19.93337447,0.06256294
19.96670787,0.06149480
20.00004128,0.06729332
20.03337468,0.06286813
20.06670808,0.06485184
20.10004148,0.06836146
20.13337488,0.06942961
20.16670829,0.07003998
20.20004169,0.07080294
20.23337509,0.07461776
20.26670849,0.07812738
20.30004190,0.07583850
20.33337530,0.07873775
20.36670870,0.08087405
20.40004210,0.08362071
20.43337550,0.08743553
20.46670891,0.09430219
20.50004231,0.09430219
20.53337571,0.09903257
20.56670911,0.10010070
20.60004251,0.10910370
20.63337592,0.10559400
20.66670932,0.10910370
20.70004272,0.11536000
20.73337612,0.12466810
20.76670953,0.12237920
20.80004293,0.13336590
20.83337633,0.13397630
20.86670973,0.13718070
20.90004313,0.14999850
20.93337654,0.15640740
20.96670994,0.16296880
21.00004334,0.16693620
21.03337674,0.17380290
21.06671014,0.17822810
21.10004355,0.19196140
21.13337695,0.19760740
21.16671035,0.20294810
21.20004375,0.21500290
21.23337715,0.21973330
21.26671056,0.22568440
21.30004396,0.24079100
21.33337736,0.25040440
21.36671076,0.25955990
21.40004417,0.27329330
21.43337757,0.28077030
21.46671097,0.29221470
21.50004437,0.30442210
21.53337777,0.31144140
21.56671118,0.32334360
21.60004458,0.33997620
21.63337798,0.34882660
21.66671138,0.36225470
21.70004478,0.37705620
21.73337819,0.38911100
21.76671159,0.40177620
21.80004499,0.41734060
21.83337839,0.42756430
21.86671180,0.44267100
21.90004520,0.45945610
21.93337860,0.47502060
21.96671200,0.48646500
22.00004540,0.50981170
22.03337881,0.52232430
22.06671221,0.53651540
22.10004561,0.56154060
22.13337901,0.57390060
22.16671241,0.59221170
22.20004582,0.61357460
22.23337922,0.62395090
22.26671262,0.64424570
22.30004602,0.66713460
22.33337943,0.68147830
22.36671283,0.70039980
22.40004623,0.72389910
22.43337963,0.74282050
22.46671303,0.76006350
22.50004644,0.78127380
22.53337984,0.79882200
22.56671324,0.82232120
22.60004664,0.84429450
22.63338004,0.86260570
22.66671345,0.88717310
22.70004685,0.90838340
22.73338025,0.93066190
22.76671365,0.95263530
22.80004705,0.97537150
22.83338046,0.99902340
22.86671386,1.02160700
22.90004726,1.05182000
22.93338066,1.06784300
22.96671407,1.09500400
23.00004747,1.12659100
23.03338087,1.14490200
23.06671427,1.16992700
23.10004767,1.20059800
23.13338108,1.22058800
23.16671448,1.24698600
23.20004788,1.28269300
23.23338128,1.30115700
23.26671468,1.32816600
23.30004809,1.35898900
23.33338149,1.38264100
23.36671489,1.41590600
23.40004829,1.44108400
23.43338170,1.47084000
23.46671510,1.50044300
23.50004850,1.53004600
23.53338190,1.55705400
23.56671530,1.59016700
23.60004871,1.61519200
23.63338211,1.63594500
23.66671551,1.67302500
23.70004891,1.70140700
23.73338231,1.72414300
23.76671572,1.76107100
23.80004912,1.79036800
23.83338252,1.82027600
23.86671592,1.85247300
23.90004933,1.88009300
23.93338273,1.91564700
23.96671613,1.94906500
24.00004953,1.97546300
24.03338293,2.00521900
24.06671634,2.04413000
24.10004974,2.07174900
24.13338314,2.09311200
24.16671654,2.13019200
24.20004994,2.15735300
24.23338335,2.18787200
24.26671675,2.21030300
24.30005015,2.24677300
24.33338355,2.26981400
24.36671695,2.29300800
24.40005036,2.32825700
24.43338376,2.35282400
24.46671716,2.38364800
24.50005056,2.40684200
24.53338397,2.43125700
24.56671737,2.45674000
24.60005077,2.48344400
24.63338417,2.50984200
24.66671757,2.53898700
24.70005098,2.55241600
24.73338438,2.57271000
24.76671778,2.60277100
24.80005118,2.63252700
24.83338458,2.65846700
24.86671799,2.68196700
24.90005139,2.71385800
24.93338479,2.72469300
24.96671819,2.75673700
25.00005160,2.78389800
25.03338500,2.81548500
25.06671840,2.83379600
25.10005180,2.86004200
25.13338520,2.87316500
25.16671861,2.90719300
25.20005201,2.93603300
25.23338541,2.96243200
25.26671881,2.98562600
25.30005221,3.00103800
25.33338562,3.02850400
25.36671902,3.06253200
25.40005242,3.08359000
25.43338582,3.10129100
25.46671923,3.12784200
25.50005263,3.15271500
25.53338603,3.17209400
25.56671943,3.20078100
25.60005283,3.23313100
25.63338624,3.24945800
25.66671964,3.26471800
25.70005304,3.30027200
25.73338644,3.31141100
25.76671984,3.33155300
25.80005325,3.36130900
25.83338665,3.37611000
25.86672005,3.40037200
25.90005345,3.42906000
25.93338685,3.45011800
25.96672026,3.47529500
26.00005366,3.49436900
26.03338706,3.51008600
26.06672046,3.53801100
26.10005387,3.55815300
26.13338727,3.56746100
26.16672067,3.58272100
26.20005407,3.61095000
26.23338747,3.61415500
26.26672088,3.62697200
26.30005428,3.65306600
26.33338768,3.65962700
26.36672108,3.67809100
26.40005448,3.69350300
26.43338789,3.70906700
26.46672129,3.71837500
26.50005469,3.73806000
26.53338809,3.74095900
26.56672150,3.75743900
26.60005490,3.76674700
26.63338830,3.78429500
26.66672170,3.79192500
26.70005510,3.80230100
26.73338851,3.80733700
26.76672191,3.81084600
26.80005531,3.82412200
26.83338871,3.83739700
26.86672211,3.84182300
26.90005552,3.84670500
26.93338892,3.85113100
26.96672232,3.85326700
27.00005572,3.86288000
27.03338913,3.86822100
27.06672253,3.87936000
27.10005593,3.87981800
27.13338933,3.88668500
27.16672273,3.89584000
27.20005614,3.88073400
27.23338954,3.88775300
27.26672294,3.89294100
27.30005634,3.87829200
27.33338974,3.88653200
27.36672315,3.88424300
27.40005655,3.88271700
27.43338995,3.88500600
27.46672335,3.87508800
27.50005675,3.88622700
27.53339016,3.88256500
27.56672356,3.88256500
27.60005696,3.87142600
27.63339036,3.88378500
27.66672377,3.85662400
27.70005717,3.86791600
27.73339057,3.86043900
27.76672397,3.84945200
27.80005737,3.84731600
27.83339078,3.83678700
27.86672418,3.82351100
27.90005758,3.82335900
27.93339098,3.80398000
27.96672438,3.80230100
28.00005779,3.78032800
28.03339119,3.77971700
28.06672459,3.75972800
28.10005799,3.75866000
28.13339140,3.74126400
28.16672480,3.72798800
28.20005820,3.70464200
28.23339160,3.69045100
28.26672500,3.66435700
28.30005841,3.65398100
28.33339181,3.63231300
28.36672521,3.61934300
28.40005861,3.60835600
28.43339201,3.59065500
28.46672542,3.58363600
28.50005882,3.56914000
28.53339222,3.55418600
28.56672562,3.52717700
28.60005902,3.50932300
28.63339243,3.49513200
28.66672583,3.47804200
28.70005923,3.45271200
28.73339263,3.42661800
28.76672604,3.41486900
28.80005944,3.37977200
28.83339284,3.35947800
28.86672624,3.34635400
28.90005964,3.31904100
28.93339305,3.28623300
28.96672645,3.27555200
29.00005985,3.25357800
29.03339325,3.22901100
29.06672665,3.20673200
29.10006006,3.18765800
29.13339346,3.15805500
29.16672686,3.12921500
29.20006026,3.11655000
29.23339367,3.07947000
29.26672707,3.04406900
29.30006047,3.02591000
29.33339387,3.00302100
29.36672727,2.97891200
29.40006068,2.97204500
29.43339408,2.95724400
29.46672748,2.91451800
29.50006088,2.89803800
29.53339428,2.86324600
29.56672769,2.83486400
29.60006109,2.83196500
29.63339449,2.79839500
29.66672789,2.76100900
29.70006130,2.74300400
29.73339470,2.71767300
29.76672810,2.69478400
29.80006150,2.67616800
29.83339490,2.64931200
29.86672831,2.63023800
29.90006171,2.60490700
29.93339511,2.56019800
29.96672851,2.53639300
30.00006191,2.50557000
30.03339532,2.48893700
30.06672872,2.46345400
30.10006212,2.43598700
30.13339552,2.41859200
30.16672892,2.39295600
30.20006233,2.36655800
30.23339573,2.33817600
30.26672913,2.31315000
30.30006253,2.28843000
30.33339594,2.26004800
30.36672934,2.23181900
30.40006274,2.20481000
30.43339614,2.17261300
30.46672954,2.14758800
30.50006295,2.11493300
30.53339635,2.07785300
30.56672975,2.05587900
30.60006315,2.02383500
30.63339655,1.99377400
30.66672996,1.95715200
30.70006336,1.92465000
30.73339676,1.89474200
30.76673016,1.86986900
30.80006357,1.84514900
30.83339697,1.82638000
30.86673037,1.78731700
30.90006377,1.75618800
30.93339717,1.72521100
30.96673058,1.70079600
31.00006398,1.66692100
31.03339738,1.63426600
31.06673078,1.61488700
31.10006418,1.58314800
31.13339759,1.54881400
31.16673099,1.52562000
31.20006439,1.49647500
31.23339779,1.46794000
31.26673120,1.43543800
31.30006460,1.40675100
31.33339800,1.37928400
31.36673140,1.35166500
31.40006480,1.32099400
31.43339821,1.29139100
31.46673161,1.27521600
31.50006501,1.23844100
31.53339841,1.21128000
31.56673181,1.19922500
31.60006522,1.16916400
31.63339862,1.14749600
31.66673202,1.12048700
31.70006542,1.09729300
31.73339882,1.07150500
31.76673223,1.04602200
31.80006563,1.02465900
31.83339903,0.99902340
31.86673243,0.98513750
31.90006584,0.95202490
31.93339924,0.93401900
31.96673264,0.91158790
32.00006604,0.89205600
32.03339944,0.86611530
32.06673285,0.84185310
32.10006625,0.82033750
32.13339965,0.80050050
32.16673305,0.78615680
32.20006645,0.76372570
32.23339986,0.74785610
32.26673326,0.72435680
32.30006666,0.70558790
32.33340006,0.68987090
32.36673347,0.67018650
32.40006687,0.65599540
32.43340027,0.63554790
32.46673367,0.62181460
32.50006707,0.59938350
32.53340048,0.58244570
32.56673388,0.56825460
32.60006728,0.55146940
32.63340068,0.53651540
32.66673408,0.52049310
32.70006749,0.50157170
32.73340089,0.48783840
32.76673429,0.47456280
32.80006769,0.46113470
32.83340110,0.44190800
32.86673450,0.43321030
32.90006790,0.41840880
32.93340130,0.40223400
32.96673470,0.39613030
33.00006811,0.37842950
33.03340151,0.36530660
33.06673491,0.35706660
33.10006831,0.33936580
33.13340171,0.32715840
33.16673512,0.31662950
33.20006852,0.30472730
33.23340192,0.29297770
33.26673532,0.28550060
33.30006872,0.27359840
33.33340213,0.26322220
33.36673553,0.25620290
33.40006893,0.24109620
33.43340233,0.23621330
33.46673574,0.22721030
33.50006914,0.21500290
33.53340254,0.20767850
33.56673594,0.20065920
33.60006934,0.19363990
33.63340275,0.18433180
33.66673615,0.18066960
33.70006955,0.17105620
33.73340295,0.16296880
33.76673635,0.16113770
33.80006976,0.15167700
33.83340316,0.14526810
33.86673656,0.14145330
33.90006996,0.13397630
33.93340337,0.12710960
33.96673677,0.12436290
34.00007017,0.12024290
34.03340357,0.11368150
34.06673697,0.11154520
34.10007038,0.10605180
34.13340378,0.10025330
34.16673718,0.10010070
34.20007058,0.09475997
34.23340398,0.09109775
34.26673739,0.08957183
34.30007079,0.08362071
34.33340419,0.08316294
34.36673759,0.08163701
34.40007100,0.07675405
34.43340440,0.07736442
34.46673780,0.07477035
34.50007120,0.07141331
34.53340460,0.06912442
34.56673801,0.06820887
34.60007141,0.06729332
34.63340481,0.06469924
34.66673821,0.06408887
34.70007161,0.06347850
34.73340502,0.06134220
34.76673842,0.05890072
34.80007182,0.05905332
34.83340522,0.05798517
34.86673862,0.05874813
34.90007203,0.05600147
34.93340543,0.05691702
34.96673883,0.05691702
35.00007223,0.05600147
35.03340564,0.05691702
35.06673904,0.06164739
35.10007244,0.05691702
35.13340584,0.05737480
35.16673924,0.06103702
35.20007265,0.05783258
35.23340605,0.05874813
35.26673945,0.06027406
35.30007285,0.05935850
35.33340625,0.06241035
35.36673966,0.06469924
35.40007306,0.05966369
35.43340646,0.06347850
35.46673986,0.06866664
35.50007327,0.06286813
35.53340667,0.06622516
35.56674007,0.07095554
35.60007347,0.06759850
35.63340687,0.07065035
35.66674028,0.07339702
35.70007368,0.07339702
35.73340708,0.07431257
35.76674048,0.07721183
35.80007388,0.07629627
35.83340729,0.07889035
35.86674069,0.08041627
35.90007409,0.08163701
35.93340749,0.08407849
35.96674090,0.08697775
36.00007430,0.08713035
36.03340770,0.08850367
36.06674110,0.09048738
36.10007450,0.09155553
36.13340791,0.09186071
36.16674131,0.09826960
36.20007471,0.09704886
36.23340811,0.09720145
36.26674151,0.10254220
36.30007492,0.10040590
36.33340832,0.10284740
36.36674172,0.10620440
36.40007512,0.10544150
36.43340852,0.10788290
36.46674193,0.11215550
36.50007533,0.11139260
36.53340873,0.11124000
36.56674213,0.11459700
36.60007554,0.11627550
36.63340894,0.11658070
36.66674234,0.12054810
36.70007574,0.11978520
36.73340914,0.12100590
36.76674255,0.12329480
36.80007595,0.12436290
36.83340935,0.12466810
36.86674275,0.12634660
36.90007615,0.12543110
36.93340956,0.12710960
36.96674296,0.13153480
37.00007636,0.12985630
37.03340976,0.12955110
37.06674317,0.13550220
37.10007657,0.13031400
37.13340997,0.13245030
37.16674337,0.13657030
37.20007677,0.13443400
37.23341018,0.13550220
37.26674358,0.13687550
37.30007698,0.13779110
37.33341038,0.13840140
37.36674378,0.14130070
37.40007719,0.13855400
37.43341059,0.14008000
37.46674399,0.14008000
37.50007739,0.13794370
37.53341080,0.13901180
37.56674420,0.14008000
37.60007760,0.13687550
37.63341100,0.13855400
37.66674440,0.13977480
37.70007781,0.13794370
37.73341121,0.13946960
37.76674461,0.14328440
37.80007801,0.13794370
37.83341141,0.13855400
37.86674482,0.14084290
37.90007822,0.13901180
37.93341162,0.13794370
37.96674502,0.13931700
38.00007842,0.13641770
38.03341183,0.13580740
38.06674523,0.13702810
38.10007863,0.13519700
38.13341203,0.13336590
38.16674544,0.13458660
38.20007884,0.13229770
38.23341224,0.13168740
38.26674564,0.13458660
38.30007904,0.12985630
38.33341245,0.13245030
38.36674585,0.13611260
38.40007925,0.12970370
38.43341265,0.13031400
38.46674605,0.13122960
38.50007946,0.12558370
38.53341286,0.12848290
38.56674626,0.12344740
38.60007966,0.12360000
38.63341307,0.12222660
38.66674647,0.12329480
38.70007987,0.11810660
38.73341327,0.11932740
38.76674667,0.11749630
38.80008008,0.11322370
38.83341348,0.11368150
38.86674688,0.10910370
38.90008028,0.11017180
38.93341368,0.10788290
38.96674709,0.10498370
39.00008049,0.10177920
39.03341389,0.10452590
39.06674729,0.10071110
39.10008070,0.09826960
39.13341410,0.09949034
39.16674750,0.09918515
39.20008090,0.09414960
39.23341430,0.09353923
39.26674771,0.09216590
39.30008111,0.09094515
39.33341451,0.08941923
39.36674791,0.08972442
39.40008131,0.08606219
39.43341472,0.08468886
39.46674812,0.08575701
39.50008152,0.08041627
39.53341492,0.08117923
39.56674832,0.08102664
39.60008173,0.07568590
39.63341513,0.07766961
39.66674853,0.07797479
39.70008193,0.06942961
39.73341534,0.07080294
39.76674874,0.06881924
39.80008214,0.06653035
39.83341554,0.06744590
39.86674894,0.06469924
39.90008235,0.06576739
39.93341575,0.06408887
39.96674915,0.06622516
40.00008255,0.05905332
40.03341595,0.05813776
40.06674936,0.05874813
40.10008276,0.05432295
40.13341616,0.05218665
40.16674956,0.05630665
40.20008297,0.05035554
40.23341637,0.04974517
40.26674977,0.05035554
40.30008317,0.04791406
40.33341657,0.04577776
40.36674998,0.04684591
40.40008338,0.04348888
40.43341678,0.04211554
40.46675018,0.04409925
40.50008358,0.04043702
40.53341699,0.03784295
40.56675039,0.04303110
40.60008379,0.03677480
40.63341719,0.03463851
40.66675059,0.03707999
40.70008400,0.03387555
40.73341740,0.03463851
40.76675080,0.03234962
40.80008420,0.03173925
40.83341761,0.03128147
40.86675101,0.03341777
40.90008441,0.02945036
40.93341781,0.02380444
40.96675121,0.02868740
41.00008462,0.02258370
41.03341802,0.02258370
41.06675142,0.02319407
41.10008482,0.02166814
41.13341822,0.01998962
41.16675163,0.02273629
41.20008503,0.01953185
41.23341843,0.01663259
41.26675183,0.02105777
41.30008524,0.01648000
41.33341864,0.01709037
41.36675204,0.01922666
41.40008544,0.01495407
41.43341884,0.01419111
41.46675225,0.01754814
41.50008565,0.01312296
41.53341905,0.01113926
41.56675245,0.01464888
41.60008585,0.00946074
41.63341926,0.01007111
41.66675266,0.01190222
41.70008606,0.00869778
41.73341946,0.00793481
41.76675287,0.01220740
41.80008627,0.00854518
41.83341967,0.00747704
41.86675307,0.00976592
41.90008647,0.00900296
41.93341988,0.00808741
41.96675328,0.00900296
42.00008668,0.00671407
42.03342008,0.00824000
42.06675348,0.00747704
42.10008689,0.00579852
42.13342029,0.00656148
42.16675369,0.00747704
42.20008709,0.00762963
42.23342049,0.00640889
42.26675390,0.00610370
42.30008730,0.00701926
42.33342070,0.00427259
42.36675410,0.00564592
42.40008751,0.00625629
42.43342091,0.00549333
42.46675431,0.00885037
42.50008771,0.00701926
42.53342111,0.00503555
42.56675452,0.00915555
42.60008792,0.00503555
42.63342132,0.00289926
42.66675472,0.00976592
42.70008812,0.00640889
42.73342153,0.00518815
42.76675493,0.00701926
42.80008833,0.00732444
42.83342173,0.00488296
42.86675514,0.00701926
42.90008854,0.00900296
42.93342194,0.00534074
42.96675534,0.00808741
43.00008874,0.00762963
43.03342215,0.00457778
43.06675555,0.00976592
43.10008895,0.00885037
43.13342235,0.00656148
43.16675575,0.01159703
43.20008916,0.00747704
43.23342256,0.01174963
43.26675596,0.00915555
43.30008936,0.00946074
43.33342277,0.01129185
43.36675617,0.01510666
43.40008957,0.01113926
43.43342297,0.00503555
43.46675637,0.01419111
43.50008978,0.00976592
43.53342318,0.00778222
43.56675658,0.00885037
43.60008998,0.00824000
43.63342338,0.00946074
43.66675679,0.01251259
43.70009019,0.01113926
43.73342359,0.00747704
43.76675699,0.01480148
43.80009039,0.01129185
43.83342380,0.00579852
43.86675720,0.01174963
43.90009060,0.00946074
43.93342400,0.00930815
43.96675741,0.01480148
44.00009081,0.00976592
44.03342421,0.00900296
44.06675761,0.01678518
44.10009101,0.00946074
44.13342442,0.01159703
44.16675782,0.01495407
44.20009122,0.01236000
44.23342462,0.01266518
44.26675802,0.01266518
44.30009143,0.01281777
44.33342483,0.01434370
44.36675823,0.01266518
44.40009163,0.01129185
44.43342504,0.01464888
44.46675844,0.00991852
44.50009184,0.01174963
44.53342524,0.01220740
44.56675864,0.01037629
44.60009205,0.01342814
44.63342545,0.01098666
44.66675885,0.01052889
44.70009225,0.01220740
44.73342565,0.00946074
44.76675906,0.01220740
44.80009246,0.01220740
44.83342586,0.01129185
44.86675926,0.01037629
44.90009267,0.01037629
44.93342607,0.00885037
44.96675947,0.00793481
45.00009287,0.01037629
45.03342627,0.00885037
45.06675968,0.01068148
45.10009308,0.00946074
45.13342648,0.00854518
45.16675988,0.01266518
45.20009328,0.00991852
45.23342669,0.00625629
45.26676009,0.01159703
45.30009349,0.00686667
45.33342689,0.00869778
45.36676029,0.01113926
45.40009370,0.00640889
45.43342710,0.00701926
45.46676050,0.00900296
45.50009390,0.00671407
45.53342731,0.00610370
45.56676071,0.00885037
45.60009411,0.00610370
45.63342751,0.00442518
45.66676091,0.00671407
45.70009432,0.00640889
45.73342772,0.00549333
45.76676112,0.00625629
45.80009452,0.00579852
45.83342792,0.00335704
45.86676133,0.00793481
45.90009473,0.00381481
45.93342813,0.00152593
45.96676153,0.00503555
46.00009494,0.00427259
46.03342834,0.00152593
46.06676174,0.00457778
46.10009514,0.00213630
46.13342854,0.00122074
46.16676195,0.00198370
46.20009535,0.00076296
46.23342875,-0.00106815
46.26676215,0.00183111
46.30009555,0.00076296
46.33342896,-0.00320444
46.36676236,-0.00030519
46.40009576,0.00030519
46.43342916,-0.00457778
46.46676257,-0.00228889
46.50009597,-0.00106815
46.53342937,-0.00350963
46.56676277,-0.00106815
46.60009617,-0.00228889
46.63342958,-0.00701926
46.66676298,-0.00412000
46.70009638,-0.00381481
46.73342978,-0.00671407
46.76676318,-0.00518815
46.80009659,-0.00503555
46.83342999,-0.00778222
46.86676339,-0.00701926
46.90009679,-0.00640889
46.93343019,-0.00915555
46.96676360,-0.00747704
47.00009700,-0.00534074
47.03343040,-0.00915555
47.06676380,-0.00747704
47.10009721,-0.00686667
47.13343061,-0.00961333
47.16676401,-0.00747704
47.20009741,-0.00686667
47.23343081,-0.00839259
47.26676422,-0.00915555
47.30009762,-0.00778222
47.33343102,-0.01236000
47.36676442,-0.00656148
47.40009782,-0.01037629
47.43343123,-0.01174963
47.46676463,-0.01251259
47.50009803,-0.01022370
47.53343143,-0.01144444
47.56676484,-0.00808741
47.60009824,-0.01052889
47.63343164,-0.01159703
47.66676504,-0.00869778
47.70009844,-0.00839259
47.73343185,-0.01266518
47.76676525,-0.00717185
47.80009865,-0.00885037
47.83343205,-0.01327555
47.86676545,-0.01129185
47.90009886,-0.01052889
47.93343226,-0.01281777
47.96676566,-0.00762963
48.00009906,-0.01022370
48.03343247,-0.01297037
48.06676587,-0.01266518
48.10009927,-0.01007111
48.13343267,-0.01159703
48.16676607,-0.00991852
48.20009948,-0.00961333
48.23343288,-0.01052889
48.26676628,-0.01083407
48.30009968,-0.01129185
48.33343308,-0.01205481
48.36676649,-0.01297037
48.40009989,-0.01068148
48.43343329,-0.01251259
48.46676669,-0.01129185
48.50010009,-0.01037629
48.53343350,-0.01052889
48.56676690,-0.00900296
48.60010030,-0.01068148
48.63343370,-0.01312296
48.66676711,-0.00946074
48.70010051,-0.00900296
48.73343391,-0.01205481
48.76676731,-0.00946074
48.80010071,-0.00701926
48.83343412,-0.01144444
48.86676752,-0.01052889
48.90010092,-0.00701926
48.93343432,-0.01022370
48.96676772,-0.00839259
49.00010113,-0.00778222
49.03343453,-0.01388592
49.06676793,-0.00762963
49.10010133,-0.01022370
49.13343474,-0.01022370
49.16676814,-0.00885037
49.20010154,-0.00686667
49.23343494,-0.01113926
49.26676834,-0.00564592
49.30010175,-0.00305185
49.33343515,-0.01022370
49.36676855,-0.00625629
49.40010195,-0.00518815
49.43343535,-0.00808741
49.46676876,-0.00671407
49.50010216,-0.00381481
49.53343556,-0.00793481
49.56676896,-0.00503555
49.60010237,-0.00335704
49.63343577,-0.00564592
49.66676917,-0.00427259
49.70010257,-0.00228889
49.73343597,-0.00625629
49.76676938,-0.00183111
49.80010278,-0.00183111
49.83343618,-0.00564592
49.86676958,-0.00106815
49.90010298,-0.00091556
49.93343639,-0.00183111
49.96676979,0.00000000
50.00010319,0.00198370
50.03343659,-0.00305185
50.06676999,-0.00167852
50.10010340,-0.00061037
50.13343680,0.00030519
50.16677020,-0.00030519
50.20010360,0.00244148
50.23343701,-0.00137333
50.26677041,0.00183111
50.30010381,0.00274667
50.33343721,-0.00350963
50.36677061,0.00289926
50.40010402,0.00183111
50.43343742,0.00091556
50.46677082,0.00045778
50.50010422,0.00366222
50.53343762,-0.00259407
50.56677103,0.00045778
50.60010443,0.00305185
50.63343783,0.00045778
50.66677123,0.00183111
50.70010464,0.00274667
50.73343804,0.00061037
50.76677144,0.00305185
50.80010484,0.00167852
50.83343824,0.00061037
50.86677165,-0.00061037
50.90010505,0.00579852
50.93343845,0.00015259
50.96677185,0.00412000
51.00010525,0.00259407
51.03343866,-0.00106815
51.06677206,0.00412000
51.10010546,0.00808741
51.13343886,-0.00030519
51.16677226,0.00259407
51.20010567,0.00625629
51.23343907,-0.00061037
51.26677247,0.00320444
51.30010587,0.00640889
51.33343928,0.00274667
51.36677268,0.00320444
51.40010608,0.00442518
51.43343948,0.00305185
51.46677288,0.00381481
51.50010629,0.00366222
51.53343969,0.00305185
51.56677309,0.00274667
51.60010649,0.00244148
51.63343989,0.00549333
51.66677330,0.00152593
51.70010670,-0.00183111
51.73344010,0.00015259
51.76677350,0.00259407
51.80010691,-0.00412000
51.83344031,-0.00396741
51.86677371,0.00000000
51.90010711,0.00289926
51.93344051,-0.00412000
51.96677392,0.00152593
52.00010732,0.00503555
52.03344072,0.00137333
52.06677412,0.00152593
52.10010752,0.00686667
52.13344093,0.00137333
52.16677433,0.00289926
52.20010773,0.00396741
52.23344113,-0.00137333
52.26677454,-0.00061037
52.30010794,0.00305185
52.33344134,-0.00259407
52.36677474,0.00000000
52.40010814,0.00381481
52.43344155,0.00000000
52.46677495,0.00305185
52.50010835,0.00412000
52.53344175,-0.00106815
52.56677515,0.00076296
52.60010856,0.00503555
52.63344196,-0.00442518
52.66677536,-0.00045778
52.70010876,0.00396741
52.73344216,-0.00824000
52.76677557,-0.00045778
52.80010897,0.00305185
52.83344237,-0.00381481
52.86677577,-0.00030519
52.90010918,-0.00152593
52.93344258,-0.00625629
52.96677598,-0.00213630
53.00010938,-0.00137333
53.03344278,-0.00534074
53.06677619,-0.00412000
53.10010959,0.00137333
53.13344299,-0.00686667
53.16677639,-0.00534074
53.20010979,-0.00152593
53.23344320,-0.00503555
53.26677660,-0.00473037
53.30011000,-0.00305185
53.33344340,-0.00549333
53.36677681,-0.00534074
53.40011021,-0.00885037
53.43344361,-0.00213630
53.46677701,-0.00717185
53.50011041,-0.00991852
53.53344382,-0.00305185
53.56677722,-0.00717185
53.60011062,-0.01159703
53.63344402,-0.00534074
53.66677742,-0.00808741
53.70011083,-0.01083407
53.73344423,-0.00625629
53.76677763,-0.00869778
53.80011103,-0.01174963
53.83344444,-0.00762963
53.86677784,-0.00793481
53.90011124,-0.00900296
53.93344464,-0.00747704
53.96677804,-0.00869778
54.00011145,-0.01144444
54.03344485,-0.00640889
54.06677825,-0.01052889
54.10011165,-0.00915555
54.13344505,-0.01022370
54.16677846,-0.00961333
54.20011186,-0.00808741
54.23344526,-0.00869778
54.26677866,-0.01266518
54.30011206,-0.01068148
54.33344547,-0.01007111
54.36677887,-0.01205481
54.40011227,-0.01144444
54.43344567,-0.01205481
54.46677908,-0.01205481
54.50011248,-0.01159703
54.53344588,-0.01129185
54.56677928,-0.01327555
54.60011268,-0.01251259
54.63344609,-0.01373333
54.66677949,-0.01281777
54.70011289,-0.01159703
54.73344629,-0.01632740
54.76677969,-0.01281777
54.80011310,-0.00839259
54.83344650,-0.01022370
54.86677990,-0.01174963
54.90011330,-0.00946074
54.93344671,-0.01495407
54.96678011,-0.01312296
55.00011351,-0.00824000
55.03344691,-0.01190222
55.06678031,-0.01297037
55.10011372,-0.01297037
55.13344712,-0.01358074
55.16678052,-0.01052889
55.20011392,-0.01297037
55.23344732,-0.01846370
55.26678073,-0.01159703
55.30011413,-0.01312296
55.33344753,-0.01525925
55.36678093,-0.01205481
55.40011434,-0.00915555
55.43344774,-0.01678518
55.46678114,-0.01144444
55.50011454,-0.01388592
55.53344794,-0.01785333
55.56678135,-0.01236000
55.60011475,-0.01327555
55.63344815,-0.01861629
55.66678155,-0.01266518
55.70011495,-0.01312296
55.73344836,-0.01739555
55.76678176,-0.01281777
55.80011516,-0.00839259
55.83344856,-0.01632740
55.86678196,-0.01144444
55.90011537,-0.01083407
55.93344877,-0.01388592
55.96678217,-0.01266518
56.00011557,-0.01068148
56.03344898,-0.01251259
56.06678238,-0.01312296
56.10011578,-0.01388592
56.13344918,-0.01495407
56.16678258,-0.01205481
56.20011599,-0.01190222
56.23344939,-0.01541185
56.26678279,-0.01327555
56.30011619,-0.01434370
56.33344959,-0.01373333
56.36678300,-0.01266518
56.40011640,-0.00961333
56.43344980,-0.01525925
56.46678320,-0.01159703
56.50011661,-0.00900296
56.53345001,-0.01159703
56.56678341,-0.01159703
56.60011681,-0.00930815
56.63345021,-0.01037629
56.66678362,-0.01083407
56.70011702,-0.00839259
56.73345042,-0.01281777
56.76678382,-0.01266518
56.80011722,-0.01022370
56.83345063,-0.01312296
56.86678403,-0.01052889
56.90011743,-0.00839259
56.93345083,-0.01510666
56.96678424,-0.01297037
57.00011764,-0.00915555
57.03345104,-0.01052889
57.06678444,-0.01129185
57.10011784,-0.00793481
57.13345125,-0.01205481
57.16678465,-0.01113926
57.20011805,-0.01052889
57.23345145,-0.01022370
57.26678485,-0.01129185
57.30011826,-0.00900296
57.33345166,-0.01251259
57.36678506,-0.01068148
57.40011846,-0.01144444
57.43345186,-0.01281777
57.46678527,-0.01190222
57.50011867,-0.00686667
57.53345207,-0.01174963
57.56678547,-0.01068148
57.60011888,-0.01174963
57.63345228,-0.01007111
57.66678568,-0.01129185
57.70011908,-0.00747704
57.73345248,-0.00915555
57.76678589,-0.01083407
57.80011929,-0.01068148
57.83345269,-0.01159703
57.86678609,-0.01052889
57.90011949,-0.00793481
57.93345290,-0.01129185
57.96678630,-0.01037629
58.00011970,-0.00946074
58.03345310,-0.01037629
58.06678651,-0.01266518
58.10011991,-0.00824000
58.13345331,-0.01236000
58.16678671,-0.01251259
58.20012011,-0.00961333
58.23345352,-0.01144444
58.26678692,-0.01159703
58.30012032,-0.00961333
58.33345372,-0.01052889
58.36678712,-0.01190222
58.40012053,-0.00961333
58.43345393,-0.01449629
58.46678733,-0.01190222
58.50012073,-0.01068148
58.53345414,-0.01403851
58.56678754,-0.01266518
58.60012094,-0.01129185
58.63345434,-0.01251259
58.66678774,-0.01373333
58.70012115,-0.01159703
58.73345455,-0.01388592
58.76678795,-0.01281777
58.80012135,-0.01205481
58.83345475,-0.01770074
58.86678816,-0.01480148
58.90012156,-0.01205481
58.93345496,-0.01632740
58.96678836,-0.01419111
59.00012176,-0.01327555
59.03345517,-0.01678518
59.06678857,-0.01541185
59.10012197,-0.01358074
59.13345537,-0.01785333
59.16678878,-0.01663259
59.20012218,-0.01480148
59.23345558,-0.01800592
59.26678898,-0.01693777
59.30012238,-0.01556444
59.33345579,-0.01419111
59.36678919,-0.01693777
59.40012259,-0.01602222
59.43345599,-0.01800592
59.46678939,-0.01663259
59.50012280,-0.01358074
59.53345620,-0.01739555
59.56678960,-0.01800592
59.60012300,-0.01602222
59.63345641,-0.02136296
59.66678981,-0.01739555
59.70012321,-0.01678518
59.73345661,-0.02029481
59.76679001,-0.01815851
59.80012342,-0.01892148
59.83345682,-0.01815851
59.86679022,-0.01998962
59.90012362,-0.01907407
59.93345702,-0.01846370
59.96679043,-0.01998962
60.00012383,-0.01739555
60.03345723,-0.01998962
60.06679063,-0.02121036
60.10012404,-0.02044740
60.13345744,-0.02029481
60.16679084,-0.02059999
60.20012424,-0.01510666
60.23345764,-0.02182074
60.26679105,-0.02029481
60.30012445,-0.01754814
60.33345785,-0.01968444
60.36679125,-0.02227851
60.40012465,-0.01815851
60.43345806,-0.02136296
60.46679146,-0.02243111
60.50012486,-0.01876888
60.53345826,-0.02349925
60.56679166,-0.02334666
60.60012507,-0.02227851
60.63345847,-0.02151555
60.66679187,-0.02227851
60.70012527,-0.01739555
60.73345868,-0.02304148
60.76679208,-0.02349925
60.80012548,-0.02044740
60.83345888,-0.02273629
60.86679228,-0.02105777
60.90012569,-0.01846370
60.93345909,-0.02365185
60.96679249,-0.01983703
61.00012589,-0.01663259
61.03345929,-0.02136296
61.06679270,-0.02243111
61.10012610,-0.01800592
61.13345950,-0.02212592
61.16679290,-0.02517777
61.20012631,-0.02243111
61.23345971,-0.02334666
61.26679311,-0.02548296
61.30012651,-0.02166814
61.33345991,-0.02426222
61.36679332,-0.02395703
61.40012672,-0.02136296
61.43346012,-0.02365185
61.46679352,-0.02273629
61.50012692,-0.02121036
61.53346033,-0.02334666
61.56679373,-0.02502518
61.60012713,-0.02105777
61.63346053,-0.02288888
61.66679394,-0.02533036
61.70012734,-0.02059999
61.73346074,-0.02304148
61.76679414,-0.02304148
61.80012754,-0.01998962
61.83346095,-0.02288888
61.86679435,-0.02334666
61.90012775,-0.02044740
61.93346115,-0.02304148
61.96679455,-0.02334666
62.00012796,-0.01739555
62.03346136,-0.02212592
62.06679476,-0.02395703
62.10012816,-0.01617481
62.13346156,-0.02304148
62.16679497,-0.02380444
62.20012837,-0.02090518
62.23346177,-0.02121036
62.26679517,-0.02212592
62.30012858,-0.01876888
62.33346198,-0.02105777
62.36679538,-0.02227851
62.40012878,-0.02105777
62.43346218,-0.02014222
62.46679559,-0.02105777
62.50012899,-0.01739555
62.53346239,-0.02029481
62.56679579,-0.02121036
62.60012919,-0.01800592
62.63346260,-0.02090518
62.66679600,-0.01922666
62.70012940,-0.01602222
62.73346280,-0.01968444
62.76679621,-0.01998962
62.80012961,-0.01602222
62.83346301,-0.01815851
62.86679641,-0.01754814
62.90012981,-0.01419111
62.93346322,-0.01648000
62.96679662,-0.01724296
63.00013002,-0.01617481
63.03346342,-0.01693777
63.06679682,-0.01739555
63.10013023,-0.01449629
63.13346363,-0.01663259
63.16679703,-0.01602222
63.20013043,-0.01510666
63.23346383,-0.01495407
63.26679724,-0.01525925
63.30013064,-0.01388592
63.33346404,-0.01495407
63.36679744,-0.01724296
63.40013085,-0.01205481
63.43346425,-0.01449629
63.46679765,-0.01602222
63.50013105,-0.01037629
63.53346445,-0.01403851
63.56679786,-0.01510666
63.60013126,-0.01022370
63.63346466,-0.01205481
63.66679806,-0.01083407
63.70013146,-0.01022370
63.73346487,-0.01190222
63.76679827,-0.01266518
63.80013167,-0.01022370
63.83346507,-0.01037629
63.86679848,-0.01312296
63.90013188,-0.01007111
63.93346528,-0.00900296
63.96679868,-0.01190222
64.00013208,-0.00808741
64.03346549,-0.01113926
64.06679889,-0.01312296
64.10013229,-0.00885037
64.13346569,-0.00778222
64.16679909,-0.01327555
64.20013250,-0.00930815
64.23346590,-0.00824000
64.26679930,-0.00930815
64.30013270,-0.00991852
64.33346611,-0.00900296
64.36679951,-0.01358074
64.40013291,-0.00762963
64.43346631,-0.00839259
64.46679971,-0.01052889
64.50013312,-0.00961333
64.53346652,-0.00946074
64.56679992,-0.00946074
64.60013332,-0.00686667
64.63346672,-0.00778222
64.66680013,-0.00824000
64.70013353,-0.00579852
64.73346693,-0.00747704
64.76680033,-0.00412000
64.80013373,-0.00656148
64.83346714,-0.00564592
64.86680054,-0.00228889
64.90013394,-0.00213630
64.93346734,-0.00503555
64.96680075,-0.00793481
65.00013415,-0.00213630
65.03346755,-0.00595111
65.06680095,-0.01129185
65.10013435,-0.00320444
65.13346776,-0.00656148
65.16680116,-0.01251259
65.20013456,-0.00640889
65.23346796,-0.00839259
65.26680136,-0.01129185
65.30013477,-0.00946074
65.33346817,-0.00885037
65.36680157,-0.00869778
65.40013497,-0.00885037
65.43346838,-0.00915555
65.46680178,-0.00961333
65.50013518,-0.00625629
65.53346858,-0.00885037
65.56680198,-0.01174963
65.60013539,-0.00549333
65.63346879,-0.00778222
65.66680219,-0.01419111
65.70013559,-0.00335704
65.73346899,-0.00946074
65.76680240,-0.01190222
65.80013580,-0.00869778
65.83346920,-0.01159703
65.86680260,-0.01419111
65.90013601,-0.00762963
65.93346941,-0.01052889
65.96680281,-0.01403851
66.00013621,-0.00762963
66.03346961,-0.01281777
66.06680302,-0.01388592
66.10013642,-0.00991852
66.13346982,-0.01190222
66.16680322,-0.01403851
66.20013662,-0.00518815
66.23347003,-0.01266518
66.26680343,-0.01403851
66.30013683,-0.00900296
66.33347023,-0.01159703
66.36680363,-0.01495407
66.40013704,-0.00961333
66.43347044,-0.01190222
66.46680384,-0.01541185
66.50013724,-0.00808741
66.53347065,-0.01419111
66.56680405,-0.01525925
66.60013745,-0.00793481
66.63347085,-0.01388592
66.66680425,-0.01617481
66.70013766,-0.01007111
66.73347106,-0.01480148
66.76680446,-0.01525925
66.80013786,-0.01144444
66.83347126,-0.01663259
66.86680467,-0.01678518
66.90013807,-0.01083407
66.93347147,-0.01648000
66.96680487,-0.01815851
67.00013828,-0.01129185
67.03347168,-0.01785333
67.06680508,-0.01892148
67.10013848,-0.01052889
67.13347188,-0.01892148
67.16680529,-0.01846370
67.20013869,-0.01327555
67.23347209,-0.01937925
67.26680549,-0.01983703
67.30013889,-0.01327555
67.33347230,-0.01937925
67.36680570,-0.02029481
67.40013910,-0.01495407
67.43347250,-0.02105777
67.46680591,-0.02059999
67.50013931,-0.01327555
67.53347271,-0.02136296
67.56680611,-0.02121036
67.60013951,-0.01678518
67.63347292,-0.02334666
67.66680632,-0.02105777
67.70013972,-0.01800592
67.73347312,-0.02243111
67.76680652,-0.02349925
67.80013993,-0.01724296
67.83347333,-0.02334666
67.86680673,-0.02456740
67.90014013,-0.01892148
67.93347353,-0.02487259
67.96680694,-0.02517777
68.00014034,-0.01907407
68.03347374,-0.02609333
68.06680714,-0.02517777
68.10014055,-0.01663259
68.13347395,-0.02578814
68.16680735,-0.02655110
68.20014075,-0.01785333
68.23347415,-0.02502518
68.26680756,-0.02746666
68.30014096,-0.02182074
68.33347436,-0.02487259
68.36680776,-0.02624592
68.40014116,-0.02273629
68.43347457,-0.02578814
68.46680797,-0.02838221
68.50014137,-0.02090518
68.53347477,-0.02533036
68.56680818,-0.02777184
68.60014158,-0.02365185
68.63347498,-0.02746666
68.66680838,-0.02945036
68.70014178,-0.02243111
68.73347519,-0.02700888
68.76680859,-0.02822962
68.80014199,-0.02609333
68.83347539,-0.02700888
68.86680879,-0.02990814
68.90014220,-0.02380444
68.93347560,-0.02609333
68.96680900,-0.02990814
69.00014240,-0.02578814
69.03347581,-0.02761925
69.06680921,-0.03082369
69.10014261,-0.02487259
69.13347601,-0.02777184
69.16680941,-0.03021332
69.20014282,-0.02304148
69.23347622,-0.02639851
69.26680962,-0.02868740
69.30014302,-0.02334666
69.33347642,-0.02746666
69.36680983,-0.02853481
69.40014323,-0.02655110
69.43347663,-0.02746666
69.46681003,-0.02822962
69.50014343,-0.03021332
69.53347684,-0.02777184
69.56681024,-0.02670370
69.60014364,-0.02716147
69.63347704,-0.02716147
69.66681045,-0.02822962
69.70014385,-0.02410962
69.73347725,-0.02548296
69.76681065,-0.03112888
69.80014405,-0.02212592
69.83347746,-0.02502518
69.86681086,-0.02838221
69.90014426,-0.01693777
69.93347766,-0.02456740
69.96681106,-0.02517777
70.00014447,-0.02059999
70.03347787,-0.02456740
70.06681127,-0.02044740
70.10014467,-0.02471999
70.13347808,-0.02502518
70.16681148,-0.02365185
70.20014488,-0.02487259
70.23347828,-0.02594073
70.26681168,-0.02670370
70.30014509,-0.02731407
70.33347849,-0.02655110
70.36681189,-0.02746666
70.40014529,-0.02334666
70.43347869,-0.02655110
70.46681210,-0.02777184
70.50014550,-0.02624592
70.53347890,-0.02578814
70.56681230,-0.02822962
70.60014571,-0.02471999
70.63347911,-0.02273629
70.66681251,-0.02655110
70.70014591,-0.02471999
70.73347931,-0.02349925
70.76681272,-0.02670370
70.80014612,-0.02288888
70.83347952,-0.02731407
70.86681292,-0.02731407
70.90014632,-0.02304148
70.93347973,-0.02548296
70.96681313,-0.02731407
71.00014653,-0.02105777
71.03347993,-0.02380444
71.06681333,-0.02716147
71.10014674,-0.02136296
71.13348014,-0.02288888
71.16681354,-0.02639851
71.20014694,-0.02273629
71.23348035,-0.02304148
71.26681375,-0.02655110
71.30014715,-0.02273629
71.33348055,-0.02502518
71.36681395,-0.02471999
71.40014736,-0.02105777
71.43348076,-0.02487259
71.46681416,-0.02578814
71.50014756,-0.02258370
71.53348096,-0.02410962
71.56681437,-0.02426222
71.60014777,-0.02288888
71.63348117,-0.02334666
71.66681457,-0.02502518
71.70014798,-0.02304148
71.73348138,-0.02304148
71.76681478,-0.02502518
71.80014818,-0.02212592
71.83348158,-0.02533036
71.86681499,-0.02456740
71.90014839,-0.02365185
71.93348179,-0.02410962
71.96681519,-0.02380444
72.00014859,-0.02090518
72.03348200,-0.02273629
72.06681540,-0.02395703
72.10014880,-0.02166814
72.13348220,-0.02380444
72.16681561,-0.02456740
72.20014901,-0.02456740
72.23348241,-0.02502518
72.26681581,-0.02227851
72.30014921,-0.02395703
72.33348262,-0.02334666
72.36681602,-0.02334666
72.40014942,-0.02227851
72.43348282,-0.02410962
72.46681622,-0.02288888
72.50014963,-0.02121036
72.53348303,-0.02456740
72.56681643,-0.02395703
72.60014983,-0.02227851
72.63348323,-0.02273629
72.66681664,-0.02273629
72.70015004,-0.01998962
72.73348344,-0.02410962
72.76681684,-0.02288888
72.80015025,-0.01998962
72.83348365,-0.02502518
72.86681705,-0.02365185
72.90015045,-0.02044740
72.93348385,-0.02365185
72.96681726,-0.02426222
73.00015066,-0.02243111
73.03348406,-0.02471999
73.06681746,-0.02594073
73.10015086,-0.02212592
73.13348427,-0.02334666
73.16681767,-0.02471999
73.20015107,-0.02105777
73.23348447,-0.02182074
73.26681788,-0.02380444
73.30015128,-0.01998962
73.33348468,-0.02365185
73.36681808,-0.02517777
73.40015148,-0.02136296
73.43348489,-0.02365185
73.46681829,-0.02380444
73.50015169,-0.02304148
73.53348509,-0.02471999
73.56681849,-0.02639851
73.60015190,-0.01968444
73.63348530,-0.02258370
73.66681870,-0.02609333
73.70015210,-0.02258370
73.73348550,-0.02471999
73.76681891,-0.02533036
73.80015231,-0.02121036
73.83348571,-0.02304148
73.86681911,-0.02273629
73.90015252,-0.02212592
73.93348592,-0.02395703
73.96681932,-0.02243111
74.00015272,-0.02014222
74.03348612,-0.02517777
74.06681953,-0.02136296
74.10015293,-0.02166814
74.13348633,-0.02548296
74.16681973,-0.02410962
74.20015313,-0.02471999
74.23348654,-0.02594073
74.26681994,-0.02639851
74.30015334,-0.02304148
74.33348674,-0.02517777
74.36682015,-0.02578814
74.40015355,-0.02609333
74.43348695,-0.02471999
74.46682035,-0.02624592
74.50015375,-0.02044740
74.53348716,-0.02670370
74.56682056,-0.02716147
74.60015396,-0.02594073
74.63348736,-0.02487259
74.66682076,-0.02700888
74.70015417,-0.02334666
74.73348757,-0.02761925
74.76682097,-0.02868740
74.80015437,-0.02426222
74.83348778,-0.02548296
74.86682118,-0.02822962
74.90015458,-0.02487259
74.93348798,-0.02700888
74.96682138,-0.02975555
75.00015479,-0.02609333
75.03348819,-0.02670370
75.06682159,-0.02853481
75.10015499,-0.02212592
75.13348839,-0.02731407
75.16682180,-0.02975555
75.20015520,-0.02578814
75.23348860,-0.02822962
75.26682200,-0.02746666
75.30015540,-0.02456740
75.33348881,-0.02838221
75.36682221,-0.02761925
75.40015561,-0.02487259
75.43348901,-0.02777184
75.46682242,-0.02777184
75.50015582,-0.02471999
75.53348922,-0.02792444
75.56682262,-0.02853481
75.60015602,-0.02548296
75.63348943,-0.02761925
75.66682283,-0.02853481
75.70015623,-0.02471999
75.73348963,-0.02960295
75.76682303,-0.02716147
75.80015644,-0.02548296
75.83348984,-0.02883999
75.86682324,-0.02716147
75.90015664,-0.02517777
75.93349005,-0.02883999
75.96682345,-0.02731407
76.00015685,-0.02044740
76.03349025,-0.02822962
76.06682365,-0.02960295
76.10015706,-0.02456740
76.13349046,-0.02838221
76.16682386,-0.02868740
76.20015726,-0.02639851
76.23349066,-0.02853481
76.26682407,-0.02716147
76.30015747,-0.02365185
76.33349087,-0.02609333
76.36682427,-0.02716147
76.40015768,-0.02578814
76.43349108,-0.02822962
76.46682448,-0.02746666
76.50015788,-0.02121036
76.53349128,-0.02700888
76.56682469,-0.02655110
76.60015809,-0.02487259
76.63349149,-0.02548296
76.66682489,-0.02624592
76.70015829,-0.02304148
76.73349170,-0.02670370
76.76682510,-0.02670370
76.80015850,-0.02349925
76.83349190,-0.02548296
76.86682530,-0.02700888
76.90015871,-0.02426222
76.93349211,-0.02670370
76.96682551,-0.02670370
77.00015891,-0.02410962
77.03349232,-0.02517777
77.06682572,-0.02655110
77.10015912,-0.02243111
77.13349252,-0.02395703
77.16682592,-0.02471999
77.20015933,-0.02166814
77.23349273,-0.02380444
77.26682613,-0.02578814
77.30015953,-0.02243111
77.33349293,-0.02304148
77.36682634,-0.02533036
77.40015974,-0.02410962
77.43349314,-0.02548296
77.46682654,-0.02609333
77.50015995,-0.02212592
77.53349335,-0.02426222
77.56682675,-0.02517777
77.60016015,-0.02395703
77.63349355,-0.02304148
77.66682696,-0.02578814
77.70016036,-0.01937925
77.73349376,-0.02365185
77.76682716,-0.02502518
77.80016056,-0.02105777
77.83349397,-0.02395703
77.86682737,-0.02365185
77.90016077,-0.02349925
77.93349417,-0.02410962
77.96682758,-0.02288888
78.00016098,-0.02136296
78.03349438,-0.02502518
78.06682778,-0.02288888
78.10016118,-0.02029481
78.13349459,-0.02304148
78.16682799,-0.02456740
78.20016139,-0.02029481
78.23349479,-0.02410962
78.26682819,-0.02822962
78.30016160,-0.02304148
78.33349500,-0.02380444
78.36682840,-0.02746666
